                                             04 ИЮЛ 24 23.45
 ЙOKCEЛ      БЭCM-6/5     ШИФP-12
 MOHИTOPHAЯ CИCTEMA  ′Д Y Б H A′  -  20/10/88







            Ж   Ж    Ж   ЖЖЖ  ЖЖЖЖЖ
            Ж   Ж   ЖЖ  Ж   Ж Ж   Ж
            Ж   Ж  Ж Ж      Ж     Ж
            Ж   Ж    Ж     Ж     Ж
            Ж Ж Ж    Ж    Ж     Ж
            Ж Ж Ж    Ж   Ж     Ж
             Ж Ж    ЖЖЖ ЖЖЖЖЖ  Ж








*NAME W127
*TAPE:12/******,32
*LIBRARY:1,2,3,5,12,23
*CALL SETFTN:ONE,LONG
*NO LIST
*NO LOAD LIST
*EXECUTE    RAY-TRACING-----RUN N0. 1234   CO-ORDINATES OF THE BEAM RADIUS.

       Z         R

  20.000000 28.000000
  22.000000 27.602570
  24.000000 27.210150
  26.000000 26.822555
  28.000000 26.439613
  30.000000 26.061159
  32.000000 25.687040
  34.000000 25.317110
  36.000000 24.951232
  38.000000 24.589275
  40.000000 24.231117
  42.000000 23.876640
  44.000000 23.525734
  46.000000 23.178292
  48.000000 22.834214
  50.000000 22.493405
  52.000000 22.155773
  54.000000 21.821231
  56.000000 21.489697
  58.000000 21.161089
  60.000000 20.835333
  62.000000 20.512356
  64.000000 20.192087
  66.000000 20.905162
  68.000000 21.664552
  70.000000 22.417195
  72.000000 23.163269
  74.000000 23.902941
  76.000000 24.636375
  78.000000 25.363725
  80.000000 26.085140
  82.000000 26.800763
  84.000000 27.510731
  86.000000 28.215176
  88.000000 28.914226
  90.000000 29.608002
  92.000000 30.296621
  94.000000 30.980198
  96.000000 31.658841
  98.000000 32.332655
 100.000000 33.001743       TRACE OF RAYS.
       Z         R1        R2    .....ETC
  20.000000 28.000000 20.000000 10.000000  1.000000
  22.000000 27.602570 19.801249 10.397434  1.992307
  24.000000 27.210150 19.604934 10.789866  2.969691
  26.000000 26.822555 19.410969 11.177480  3.932804
  28.000000 26.439613 19.219271 11.560449  4.882255
  30.000000 26.061159 19.029763 11.938937  5.818610
  32.000000 25.687040 18.842371 12.313098  6.742396
  34.000000 25.317110 18.657027 12.683076  7.654106
  36.000000 24.951232 18.473664 13.049010  8.554202
  38.000000 24.589275 18.292220 13.411029  9.443117
  40.000000 24.231117 18.112638 13.769256 10.321259
  42.000000 23.876640 17.934860 14.123809 11.189010
  44.000000 23.525734 17.758833 14.474798 12.046730
  46.000000 23.178292 17.584508 14.822329 12.894760
  48.000000 22.834214 17.411835 15.166503 13.733422
  50.000000 22.493405 17.240768 15.507414 14.563020
  52.000000 22.155773 17.071265 15.845155 15.383841
  54.000000 21.821231 16.903282 16.179813 16.196159
  56.000000 21.489697 16.736780 16.511470 17.000233
  58.000000 21.161089 16.571720 16.840205 17.796309
  60.000000 20.835333 16.408066 17.166096 18.584622
  62.000000 20.512356 16.245782 17.489215 19.365395
  64.000000 20.192087 16.084835 17.809632 20.138841
  66.000000 19.874460 15.925193 18.127413 20.905162
  68.000000 19.559410 15.766823 18.442623 21.664552
  70.000000 19.246876 15.609696 18.755323 22.417195
  72.000000 18.936798 15.453783 19.065571 23.163269
  74.000000 18.629118 15.299055 19.373425 23.902941
  76.000000 18.323781 15.145487 19.678939 24.636375
  78.000000 18.020736 14.993053 19.982165 25.363725
  80.000000 17.719930 14.841727 20.283154 26.085140
  82.000000 17.421315 14.691486 20.581955 26.800763
  84.000000 17.124844 14.542306 20.878615 27.510731
  86.000000 16.830470 14.394166 21.173178 28.215176
  88.000000 16.538150 14.247043 21.465690 28.914226
  90.000000 16.247842 14.100918 21.756191 29.608002
  92.000000 15.959504 13.955770 22.044724 30.296621
  94.000000 15.673097 13.811579 22.331327 30.980198
  96.000000 15.388583 13.668328 22.616038 31.658841
  98.000000 15.105924 13.525997 22.898895 32.332655
 100.000000 14.825084 13.384570 23.179934 33.001743       SLOPE OF RAYS.
       Z     (DR/DZ)1  (DR/DZ)2  .....ETC
  20.000000 -0.200000 -0.100000  0.200000  0.500000
  22.000000 -0.197447 -0.098759  0.197451  0.492366
  24.000000 -0.194989 -0.097563  0.194997  0.485072
  26.000000 -0.192620 -0.096409  0.192632  0.478092
  28.000000 -0.190336 -0.095295  0.190351  0.471406
  30.000000 -0.188131 -0.094219  0.188150  0.464993
  32.000000 -0.186000 -0.093179  0.186023  0.458834
  34.000000 -0.183941 -0.092172  0.183967  0.452914
  36.000000 -0.181948 -0.091197  0.181978  0.447218
  38.000000 -0.180019 -0.090252  0.180052  0.441731
  40.000000 -0.178149 -0.089336  0.178186  0.436442
  42.000000 -0.176337 -0.088447  0.176376  0.431339
  44.000000 -0.174579 -0.087584  0.174622  0.426410
  46.000000 -0.172872 -0.086746  0.172918  0.421647
  48.000000 -0.171214 -0.085931  0.171264  0.417040
  50.000000 -0.169603 -0.085139  0.169656  0.412581
  52.000000 -0.168036 -0.084368  0.168092  0.408263
  54.000000 -0.166512 -0.083618  0.166572  0.404077
  56.000000 -0.165029 -0.082887  0.165092  0.400018
  58.000000 -0.163585 -0.082175  0.163651  0.396078
  60.000000 -0.162177 -0.081482  0.162247  0.392253
  62.000000 -0.160806 -0.080805  0.160878  0.388537
  64.000000 -0.159468 -0.080145  0.159544  0.384925
  66.000000 -0.158164 -0.079501  0.158243  0.381412
  68.000000 -0.156891 -0.078872  0.156972  0.377993
  70.000000 -0.155648 -0.078258  0.155732  0.374665
  72.000000 -0.154435 -0.077658  0.154521  0.371423
  74.000000 -0.153250 -0.077072  0.153337  0.368263
  76.000000 -0.152091 -0.076499  0.152181  0.365183
  78.000000 -0.150959 -0.075938  0.151050  0.362179
  80.000000 -0.149851 -0.075390  0.149944  0.359248
  82.000000 -0.148768 -0.074853  0.148861  0.356387
  84.000000 -0.147708 -0.074328  0.147802  0.353593
  86.000000 -0.146670 -0.073814  0.146765  0.350863
  88.000000 -0.145653 -0.073310  0.145750  0.348196
  90.000000 -0.144658 -0.072817  0.144755  0.345589
  92.000000 -0.143683 -0.072333  0.143781  0.343040
  94.000000 -0.142727 -0.071859  0.142825  0.340546
  96.000000 -0.141790 -0.071394  0.141889  0.338106
  98.000000 -0.140872 -0.070938  0.140971  0.335717
 100.000000 -0.139971 -0.070491  0.140070  0.333379
I/O-ERROR 201 DETECTED IN IOCONT* CALLED FROM 01045B LUN 50 ADDRESS 07075B FORMAT
(2E15.7,2I5)
RECORD*    RAY-TRACING-----RUN N0.    0
I/O-ERROR 201 DETECTED IN IOCONT* CALLED FROM 01073B LUN 50 ADDRESS 07073B FORMAT
(2E15.7,2I5)
RECORD*
*END FILE
